Time (s),Filtered Derivative Pitch,Filtered Derivative Roll
0.010828018188476562,0,0
0.026482105255126953,-18.07017633792571,-0.37555638917659007
0.04205060005187988,-26.49236929530063,-0.6376926160994375
0.05756235122680664,-30.051759841895652,-0.6787916440545227
0.07306528091430664,-31.31928797205761,-0.6675608896948844
0.08856034278869629,-31.160616682898635,-0.6519298102826003
0.10403871536254883,-30.474219188826748,-0.7192197101367286
0.11952877044677734,-29.392065092043772,-0.7336351324189532
0.13503503799438477,-28.184195238731913,-0.6627427842801327
0.15051960945129395,-27.176201307077037,-0.671686701349028
0.16601109504699707,-26.177364769149776,-0.6086775746572435
0.18148231506347656,-25.18287269783786,-0.4506723966312709
0.19695281982421875,-24.27038257516032,-0.36127675640507306
0.21242928504943848,-23.376938251610515,-0.36127323356514063
0.22789382934570312,-22.47021601303657,-0.3689683780679386
0.243361234664917,-21.636130692260014,-0.32317574366081403
0.2588233947753906,-20.731472618926006,-0.2379272891702009
0.2742903232574463,-19.797542938891915,-0.2112079050275461
0.2897515296936035,-18.915945819452883,-0.32799487498326296
0.30523133277893066,-18.090961308783513,-0.4484814023220369
0.3206939697265625,-17.253549857901604,-0.4694424132515918
0.33615827560424805,-16.52620006466543,-0.42624153381843755
0.3516216278076172,-15.959786481379133,-0.3605174371576064
0.36708617210388184,-15.44546213507905,-0.27616638149769335
0.3825540542602539,-14.931614751331676,-0.16068763792148122
0.39801859855651855,-14.372491669811607,-0.10776619416361348
0.41347718238830566,-13.782411280638232,-0.18587060369532257
0.4289371967315674,-13.187402394276722,-0.2860262648683941
0.44440412521362305,-12.607272671038917,-0.3643710645032915
0.4598689079284668,-12.088629618125061,-0.38214602982630064
0.47535014152526855,-11.642183402282317,-0.29300109883791253
0.4908173084259033,-11.071312651672919,-0.20418562885153743
0.5062761306762695,-9.564584852904298,-0.0157763951592388
0.5217421054840088,-6.300191176218835,1.2046194652182007
0.5372109413146973,4.6006765343410425,4.749779070925323
0.552675724029541,25.988771748069638,13.103951887746888
0.5681695938110352,45.18854707145875,33.122592440098074
0.5836400985717773,57.79813793606827,50.517568807699625
0.5990979671478271,80.67829518863421,62.67205824447818
0.6145641803741455,101.72991169114022,72.80714041262786
0.6300222873687744,84.35963743460636,56.76136143082664
0.6454877853393555,21.87867337056756,14.585741564366955
0.6609513759613037,-44.36855124557191,-24.465438937100814
0.6764180660247803,-56.741319758867604,-27.2927314683688
0.6918768882751465,-6.818374561489957,5.0202744554480425
0.7073585987091064,37.17802471665773,26.992455746410435
0.7228200435638428,24.94143952958362,13.744754182084922
0.7382798194885254,-14.247997226285488,-9.19177011941669
0.7537360191345215,-16.967640710291583,-13.039284420701506
0.7691948413848877,2.293918758459153,-7.161247863374068
0.7846541404724121,-32.07021046917814,-18.253473625710924
0.8001179695129395,-108.50269784419937,-53.56671431130029
0.8155844211578369,-160.61352291260303,-86.85265848509609
0.8310482501983643,-77.32211162354906,-53.09843768849297
0.8465063571929932,-8.016506542932962,-36.79807622672534
0.8619899749755859,-9.168203432773833,-37.44213908067237
0.8774514198303223,-14.09302773233819,-34.800009122046134
0.8929128646850586,-12.599532854407293,-19.136938023745195
0.9083671569824219,-5.718916975906485,8.467580951724422
0.9238293170928955,-10.771533584055202,27.485134755594785
0.9393153190612793,18.38573346920346,22.723089087672157
0.954780101776123,6.556846681089918,1.4943008254599217
0.9702355861663818,5.723021945087307,2.8218145122000466
0.985694169998169,5.50142066609947,3.5547065855794227
1.001150131225586,1.946523668712159,-0.23702163491390893
1.0166285037994385,-11.359326330709635,-8.030645417838697
1.032088279724121,-31.633600896392323,-16.784984561980927
1.0475542545318604,-41.823448337907706,-17.123404772545463
1.0630321502685547,-64.21176503205827,-25.1008239747592
1.078505039215088,-58.836786234776994,-17.344096616395117
1.093977689743042,-27.55275565423513,5.124281924121664
1.1094512939453125,-6.357069314362209,22.788007021174373
1.1249103546142578,3.280108196150865,26.9029472135422
1.1403701305389404,0.10251687325622938,24.785530800325738
1.1558256149291992,-1.5723425492482996,20.723250461095432
1.171311616897583,3.4175770161163026,20.936565366719872
1.1867785453796387,18.63313722665291,15.20615961166661
1.2022404670715332,42.86016677874227,7.291118094545833
1.2176966667175293,71.76074937001894,-1.3834647773366289
1.2331573963165283,97.7143229718225,-3.6599025217134478
1.248612880706787,119.59473852288995,-0.8479768598298423
1.2640690803527832,128.10573291724504,5.2138151808753666
1.2795231342315674,121.27816526379804,16.8539785095721
1.2949810028076172,106.95839752292113,32.555714957128465
1.3104314804077148,81.38692522693543,50.139067697183336
1.325892686843872,60.16044163770775,57.23871055606776
1.3413472175598145,54.67949233440325,55.549932210646034
1.3568081855773926,56.05751145002165,52.87481633599751
1.3722620010375977,52.44127010470419,51.38910965385879
1.3877201080322266,45.779862742442766,43.20237140716816
1.4031705856323242,41.459634983271656,29.365605998762327
1.418637752532959,41.43099791692359,12.139465850258249
1.4340991973876953,41.95804435923506,-6.277247853845979
1.4495699405670166,39.49334960731467,-22.389247953569793
1.4650275707244873,39.42682811799208,-23.707075957484463
1.4804928302764893,38.688584642335364,-14.53539294898656
1.49595046043396,34.7512904540126,-12.44250555120453
1.511413335800171,33.6869166290121,-12.836034274497706
1.526869535446167,39.33842308835739,-12.153170868370609
1.5423431396484375,45.411467038001376,-11.727130280934407
1.5578041076660156,52.40907279833542,-7.893086018536659
1.573272705078125,62.1818609866327,-1.8491984875173473
1.5887298583984375,67.33460030486833,0.6847188852432966
1.6042156219482422,67.16734519819119,-3.4764202375856867
1.619673728942871,71.28971324752436,-11.039518257236084
1.6351284980773926,77.78832318847205,-12.719194057293802
1.650592565536499,79.51103523295414,-11.446180825214544
1.6660504341125488,80.14222861914985,-11.75889302031402
1.6815173625946045,76.91172183361286,-13.149797420552513
1.6969799995422363,71.31813850922185,-17.197434892365507
1.7124428749084473,69.10606026935868,-23.965859262804166
1.7279059886932373,68.97984440979319,-33.488095051059034
1.7433602809906006,78.61241324465853,-40.152448647959574
1.7588160037994385,92.8594162278594,-38.8750962043472
1.7742702960968018,103.80032922827056,-24.347399237265577
1.7897286415100098,112.28621522406888,-10.842737526546236
1.8051836490631104,114.76257657746625,1.8352998994212504
1.8206384181976318,114.44804931749675,4.773347050762025
1.83610200881958,115.86126971166712,-2.3875618293884893
1.8515658378601074,120.65047249803891,-10.34020595791643
1.867018461227417,124.01778698350503,-14.09407427489949
1.8824775218963623,129.94323671532848,-18.989414462506666
1.8979547023773193,139.3554505820516,-27.9361682311107
1.9134130477905273,146.0744805621547,-33.552638399106726
1.9288644790649414,143.94845074197355,-31.199886150772635
1.9443330764770508,131.61988808899005,-27.75647230600105
1.9597866535186768,119.50554872157038,-26.07870776761399
1.9752676486968994,116.19314812093222,-21.395773644719753
1.9907383918762207,120.65086972027264,-12.30112397945284
2.0062007904052734,119.78499261134519,-0.08228447441454989
2.0216469764709473,111.24534499193206,6.665893933953291
2.0371365547180176,100.11714625424086,7.485383972140562
2.052600860595703,87.72569986456055,2.314813084811703
2.068061590194702,74.49893485893129,-5.667472318951484
2.083519220352173,69.48482930413849,-12.916116522428826
2.0989744663238525,70.70019544099137,-21.299490548565295
2.114427328109741,74.06648510813403,-25.998455686222908
2.12990403175354,77.82952243352554,-28.002318517974842
2.1453614234924316,82.60460169058248,-27.07807198349676
2.1608214378356934,88.06049163122492,-25.32189298450102
2.176278591156006,93.37874861234138,-30.89679328807162
2.191739559173584,98.16517703662848,-46.522093570770224
2.2072086334228516,98.13648923322705,-52.5695063006451
2.222677230834961,90.23904964690254,-53.23011094272948
2.238132953643799,81.58902293686413,-56.75225793681463
2.25359845161438,76.36232150978404,-56.51690220385774
2.269076347351074,71.54749099896526,-49.242899110414655
2.2845380306243896,66.45565869841607,-37.543797757636305
2.3000144958496094,63.43699345589532,-26.31642592918464
2.3154900074005127,68.32977559579649,-24.596208365692505
2.3309502601623535,73.63469600389789,-27.748370625277722
2.3464369773864746,58.34896456029391,-58.31884165301237
2.3618950843811035,22.13245890531776,-29.88753389867586
2.3773574829101562,-2.7842202036197072,20.19925863228692
2.392815351486206,-9.150923258468199,41.1701922203424
2.4082748889923096,-9.932616573342695,45.890211014855964
2.423732042312622,1.6490260959090746,39.51867762790933
2.4392142295837402,19.89013799073997,33.10619435251945
2.4546761512756348,32.077187299921356,37.18293810965238
2.47013521194458,33.852885118499586,41.99167989361971
2.485592842102051,30.82598228131612,41.7490853241774
2.50105619430542,33.42948547496454,33.64290197982788
2.516511917114258,35.8419418319215,17.649969126049225
2.5319864749908447,29.354155248670505,-35.24713513488341
2.5474467277526855,19.885037309507645,-49.588633759351495
2.5629148483276367,10.697445162009776,-37.436521575430405
2.5783772468566895,4.820251247824718,-30.12900507980969
2.5938358306884766,2.4470542719518917,-35.447117259683644
2.6092896461486816,0.4039115673278687,-75.21290181327075
2.6247551441192627,-3.875502316940505,-95.0376074819639
2.640263080596924,-9.899931056869473,-98.67276073971193
2.6557345390319824,-16.001840461083876,-84.1591886956063
2.6712121963500977,-37.17637509639001,-28.82113210870581
2.686692237854004,-63.313998312961886,23.10687233359478
2.702157497406006,-83.08827004032038,33.958830093319094
2.7176225185394287,-86.01785642360792,29.19289880789329
2.733081102371216,-77.27033711622659,29.183052871719248
2.748541831970215,-75.56555107656305,35.121944997917424
2.7639989852905273,-81.70636631820523,33.76054928973177
2.7794580459594727,-87.32651780422401,27.369227640219034
2.7949156761169434,-95.30167859942205,18.50788716308928
2.8103740215301514,-105.44740150926106,10.291982785124839
2.8258304595947266,-109.98706080509776,2.0115272168330223
2.8412909507751465,-108.63238906382458,-10.03635800680848
2.8567497730255127,-103.68152585419428,-13.362157367735712
2.872213363647461,-104.667634212524,-12.946211897022387
2.88767147064209,-112.7817522272963,-8.843660499249841
2.9031307697296143,-117.1056467823494,-1.275072753502105
2.9185917377471924,-118.52265849960203,6.617770138615851
2.934056520462036,-126.01009722098462,13.42917362046662
2.949523448944092,-140.87484424176216,17.952940007772582
2.964984655380249,-149.93609195119586,20.796198468756145
2.980445146560669,-140.4877562413864,21.63846782605796
2.995906352996826,-125.32438423448238,19.2215833444845
3.0113625526428223,-114.16309467029367,12.886677795647621
3.026837110519409,-116.29930820183326,7.1157033008031725
3.042301893234253,-123.2982904819367,8.433081684014134
3.057781934738159,-127.41676335002711,12.830488801776008
3.0732436180114746,-130.65410728694243,14.92628347535181
3.0887115001678467,-141.27763016971232,14.202385163503674
3.1041758060455322,-136.69502015101358,12.532337187466293
3.119647264480591,-123.67964191632197,17.927164802583818
3.1351025104522705,-126.985988745921,27.599084513462184
3.150583505630493,-135.971299264756,34.08279800951477
3.166046380996704,-152.66659028906733,32.78825446411524
3.181511163711548,-177.14019208660426,26.279734743877896
3.196969509124756,-197.95701045786387,21.74667138248177
3.2124316692352295,-201.0079412906851,21.580201015347427
3.227888345718384,-202.58311553615897,23.426127651401806
3.2433481216430664,-209.44455481955816,26.783977802153064
3.2588002681732178,-239.96204963514344,25.389344166134848
3.2742648124694824,-296.62286922047736,18.900752796865024
3.2897279262542725,-351.64210627133434,18.282969165889277
3.3051908016204834,-379.4150902885865,29.295463197262436
3.3206491470336914,-372.9663323107508,42.43749873067368
3.3361074924468994,-335.0808609258522,44.70748292523783
3.3515634536743164,-273.5063830399823,29.948389183758383
3.367021083831787,-199.8505609704334,7.545275457805987
3.3824799060821533,-140.6382219069749,-13.129027737608364
3.397963523864746,-129.27143132581975,-21.230239474708476
3.4134223461151123,-151.9553454123361,-20.233567336970417
3.428880214691162,-182.71044035241152,-17.245620244352228
3.4443390369415283,-192.09216920726678,-11.231967943575356
3.45979905128479,-166.8423651519909,-6.891294922123782
3.4752750396728516,-135.71284144175513,-6.054601286634953
3.4907355308532715,-121.62050669461655,-10.828288807473967
3.5061933994293213,-122.52499038706608,-14.118580544240709
3.5216727256774902,-127.509648316528,-14.55770936828782
3.5371313095092773,-135.84441577498228,-10.091987483331248
3.5526010990142822,-142.0352454339282,1.2829077993662032
3.5680603981018066,-144.61377619702643,14.565733093140372
3.5835206508636475,-147.26292942133284,23.30777110568544
3.59897518157959,-145.95275354400357,25.97312619967458
3.614438533782959,-136.282426882735,22.946908777317564
3.6304690837860107,-120.64494250892427,15.607204110111505
3.6459994316101074,-114.51705866138582,11.790778072250419
3.661471366882324,-117.2773516969134,17.925037467095436
3.676940679550171,-120.11077749873803,26.452541569179875
3.6923985481262207,-122.51589678263383,29.68439621900456
3.7078707218170166,-117.78122782440055,26.46413351490576
3.7233521938323975,-104.02854728273479,16.606104148316202
3.7388241291046143,-97.92505946224114,11.10648128497646
3.754279613494873,-108.19679338276924,-2.6304894757023405
3.7697436809539795,-121.59884095669831,-12.146478630602491
3.785202980041504,-130.43900214301482,-18.215503503985715
3.8006672859191895,-140.43985122369378,-14.2017972701461
3.816128969192505,-148.85607355067498,24.985566188839
3.8315930366516113,-123.08958891285155,184.24042939857787
3.847052574157715,-27.231715713566643,-107.52509868393756
3.862525701522827,-56.56216014351088,-218.46943036330725
3.877988815307617,13.577945582084581,-301.3910194816459
3.893458127975464,-35.65109184735972,-367.23147340034086
3.908921480178833,14.201641680662746,-392.90191424796024
3.9243860244750977,-23.72402545197505,-390.11537285359174
3.9398531913757324,10.098913230946044,-375.1772361956097
3.955357551574707,-17.81375573600024,-351.73373252956065
3.9708189964294434,9.666976485802767,-332.93495345864375
3.986278533935547,-10.699154816509173,-319.6787416892547
4.001734972000122,-9.622347933419164,-308.07527376730275
4.0172131061553955,-5.051646680038172,-296.61058679465947
4.032677173614502,-2.3238640065427334,-285.76733109716656
4.04815411567688,0.5601981746849336,-269.81535559480915
4.0636115074157715,1.5346845371928368,-256.46962380166275
4.079092025756836,1.0375036488926728,-245.68922823950552
4.094558954238892,6.170061706666983,-237.42134450703625
4.110025882720947,16.810422457008904,-229.8297355172341
4.125486850738525,26.92358147980649,-223.22256308381267
4.140949010848999,36.687785211678325,-217.62338959454422
4.156404733657837,47.331781748475066,-213.67327335323432
4.171894073486328,46.20590657734999,-211.37312249525422
4.187360525131226,38.63014687574501,-208.7351337185639
4.202826023101807,23.176632049783137,-204.7694367092332
4.218285322189331,11.186404208838555,-198.97422174653764
4.233752012252808,2.986266378660694,-191.8496214214018
4.249209403991699,-0.7129223193867518,-184.16339682746388
4.264668703079224,-3.160710322182356,-176.71063545437767
4.28014874458313,-9.099977808803262,-169.381749429
4.29561185836792,-18.8637397448167,-165.1079143577166
4.3110716342926025,-24.593144520682884,-159.4993968490728
4.326535701751709,-26.37614674627666,-151.7169003000521
4.342003583908081,-29.201622419864623,-145.7435282836403
4.3574700355529785,-35.52760966361692,-138.7221496934688
4.372934818267822,-41.386573295245334,-122.84816051861755
4.388396739959717,-34.108944651820416,-108.75191932994655
4.403863430023193,-9.212903498227828,-104.24079725348389
4.419351816177368,-8.991721095148765,-97.46542844243277
4.434817790985107,11.59754169457719,-81.8906576236468
4.450285911560059,2.4499162880134886,-67.8143737344241
4.4657511711120605,7.061005407170734,-65.04450215499335
4.481213808059692,-5.032135812099878,-65.34666014062046
4.496675252914429,-1.1790102632924602,-55.23418636899273
4.512188196182251,4.638580632745873,-32.6471364933107
4.527665615081787,11.756957827034274,-26.161207549101732
4.543135643005371,5.212028826443185,-9.508930735350337
4.55860447883606,2.3492229323104272,68.93231294587923
4.574073553085327,-8.106575561749793,182.20793047855938
4.589540243148804,6.747377011866311,243.7279599606645
4.605010032653809,9.470612627518594,259.8449398568481
4.620473623275757,10.526821120187918,251.24108053526675
4.635944366455078,-7.102395675992302,243.3355500892623
4.651407241821289,-6.863145464030891,244.92041376609225
4.666871070861816,-16.85256998540616,247.67731324327212
4.6823296546936035,-13.957761477901041,252.9365020822961
4.697799205780029,-9.809698299515755,256.1019011250662
4.713260173797607,4.150295178013627,254.75843972956875
4.728724479675293,6.851472783281681,248.0076109284276
4.744188070297241,5.132575404545042,239.1891698925956
4.759677171707153,165.67045470195703,230.9814151904576
4.781329393386841,198.96319776969216,193.87418432435783
4.80298376083374,208.03311739187416,172.04319315977034
4.824627876281738,213.58633416195156,159.52967946594202
4.846309185028076,227.0699325282041,155.57855086819868
4.868696451187134,240.64233257637284,152.79683369343493
4.892273902893066,231.3782445495949,143.76867416666425
4.915836572647095,219.07443899778303,133.5933471981977
4.939444541931152,199.29768401077962,122.8219636259631
4.963023662567139,181.52009382886922,115.18224128751882
4.984698057174683,186.4733700947466,110.293391830845
5.006334543228149,195.50744342660101,103.59768530126314
5.027979612350464,195.63601488272812,93.46086182700842
5.049625396728516,180.28927239387397,81.03760603963516
5.07132625579834,178.57647120199928,67.36541476616267
5.09295916557312,197.64036406841785,57.722334237514474
5.114656209945679,218.08268413208742,57.50698227286751
5.136311769485474,226.19112292592638,65.14437546172984
5.157970666885376,229.62982313984574,66.5779279796972
5.179626226425171,243.63243452563722,65.48823620552896
5.201269626617432,272.1715714118098,69.9540619192313
5.222902059555054,275.49826121898275,75.39426522446612
5.244539022445679,278.0332846726113,69.36319690668864
5.266219139099121,286.54681465761246,60.313501554076524
5.2893171310424805,257.83662056555727,52.631638708003244
5.312864542007446,233.55321761582974,50.98463862086318
5.3365302085876465,223.55129472337023,50.182711184622384
5.360105991363525,211.68777210202583,35.206582290417366
5.3832480907440186,196.9297677141608,26.862358650707577
5.404919385910034,181.69517774555268,27.90704863274992
5.426573276519775,177.1688988321386,33.323248524766825
5.448214769363403,174.99749689382378,34.10923519480632
5.469864368438721,150.90343820496793,30.700995182658506
5.492940425872803,125.69396328936443,30.94495787412886
5.516503810882568,107.50555723083362,31.1189199739887
5.540048599243164,91.05171667927894,26.183329385212005
5.563604116439819,92.30965308327396,19.624609530682193
5.586679458618164,88.60073302210435,5.589462687751437
5.608318328857422,74.24186554635722,-6.954678258317625
5.629948854446411,68.0727580819281,-26.19972585532385
5.651658535003662,59.83204111825641,-40.68308830500148
5.6733174324035645,54.61225425256977,-73.18307804332369
5.694969654083252,36.509205429282034,-106.9936774512023
5.71661376953125,18.707969940324165,-126.54771712743937
5.738251686096191,8.726964322769316,-113.14527797409107
